"pressure","velocity:0","velocity:1","velocity:2","velocityU","h","nu","lm","u","pressureactual","velocity-raw:0","velocity-raw:1","velocity-raw:2","vtkValidPointMask","arc_length","Points:0","Points:1","Points:2"
0.037537999,0.337623,-2.8e-05,0,0.337623,0.001563,0.000124,0.00064099999,0.193084,0.000256,0.33779299,-5.7000001e-05,0,1,0,1.1,0,0
0.037537001,0.60425198,-0.000106,0,0.60425198,0.003125,0.000228,0.001281,0.177889,0.0058929999,0.60454702,-0.000155,0,1,0.0020000001,1.1,0.0020000001,0
0.037533998,0.77149701,-0.000218,0,0.77149701,0.0046870001,0.00034,0.001922,0.176698,0.0063120001,0.77187097,-0.00028000001,0,1,0.0040000002,1.1,0.0040000002,0
0.037528999,0.89156502,-0.000352,0,0.89156502,0.0062500001,0.00044800001,0.002563,0.175006,0.0069019999,0.89199603,-0.00042299999,0,1,0.0060000001,1.1,0.0060000001,0
0.037514001,1.0610141,-0.00066600001,0,1.0610141,0.0093750004,0.00066299998,0.0038439999,0.172416,0.0077869999,1.061523,-0.00075100001,0,1,0.0080000004,1.1,0.0080000004,0
0.037505001,1.125087,-0.000841,0,1.125087,0.010938,0.00076800003,0.0044840002,0.171187,0.0082,1.1256239,-0.00092999998,0,1,0.0099999998,1.1,0.0099999998,0
0.037494998,1.180303,-0.001024,0,1.180303,0.0125,0.000871,0.0051250001,0.16998699,0.0085990001,1.180865,-0.001117,0,1,0.012,1.1,0.012,0
0.037484001,1.228731,-0.001214,0,1.228731,0.014063,0.00097300002,0.0057660001,0.16881201,0.008986,1.229313,-0.001312,0,1,0.014,1.1,0.014,0
0.037457999,1.3105071,-0.0016139999,0,1.3105071,0.017188,0.001174,0.0070469999,0.166529,0.009726,1.311121,-0.001716,0,1,0.016000001,1.1,0.016000001,0
0.037443001,1.34563,-0.001821,0,1.34563,0.018750001,0.001272,0.0076879999,0.165418,0.01008,1.346257,-0.001925,0,1,0.018000001,1.1,0.018000001,0
0.037427001,1.377737,-0.0020320001,0,1.377737,0.020313,0.0013689999,0.0083280001,0.164325,0.010424,1.3783751,-0.002138,0,1,0.02,1.1,0.02,0
0.037390999,1.434602,-0.0024639999,0,1.434602,0.023437999,0.001559,0.0096089998,0.16219001,0.011086,1.435258,-0.002573,0,1,0.022,1.1,0.022,0
0.037372001,1.460003,-0.0026829999,0,1.460003,0.025,0.001652,0.01025,0.161145,0.011404,1.460665,-0.0027940001,0,1,0.024,1.1,0.024,0
0.037351001,1.483712,-0.002905,0,1.483712,0.026563,0.001744,0.010891,0.16011301,0.011715,1.48438,-0.0030159999,0,1,0.026000001,1.1,0.026000001,0
0.037328999,1.5059251,-0.0031280001,0,1.5059251,0.028124999,0.001835,0.011531,0.15909199,0.012019,1.506597,-0.00324,0,1,0.028000001,1.1,0.028000001,0
0.037282001,1.546487,-0.003578,0,1.546487,0.03125,0.002013,0.012812,0.15707999,0.012608,1.547164,-0.0036909999,0,1,0.030000001,1.1,0.030000001,0
0.037255999,1.5650899,-0.0038040001,0,1.5650899,0.032811999,0.0020999999,0.013453,0.156086,0.012893,1.565769,-0.0039169998,0,1,0.032000002,1.1,0.032000002,0
0.03723,1.582716,-0.00403,0,1.582716,0.034375001,0.0021860001,0.014094,0.15509801,0.013174,1.583395,-0.0041439999,0,1,0.034000002,1.1,0.034000002,0
0.037172001,1.61537,-0.0044829999,0,1.61537,0.037500001,0.002354,0.015375,0.153134,0.013722,1.6160491,-0.0045960001,0,1,0.036000002,1.1,0.036000002,0
0.037142001,1.630542,-0.0047089998,0,1.630542,0.039062001,0.0024369999,0.016016001,0.152156,0.01399,1.63122,-0.0048219999,0,1,0.037999999,1.1,0.037999999,0
0.037110001,1.645025,-0.0049339999,0,1.645025,0.040624999,0.0025180001,0.016656,0.151179,0.014255,1.6457,-0.005047,0,1,0.039999999,1.1,0.039999999,0
0.037076999,1.65887,-0.0051589999,0,1.65887,0.042187002,0.002598,0.017297,0.15019999,0.014517,1.659543,-0.0052709999,0,1,0.041999999,1.1,0.041999999,0
0.037007999,1.684828,-0.0056050001,0,1.684828,0.045311999,0.002754,0.018578,0.148237,0.015034,1.685493,-0.0057160002,0,1,0.044,1.1,0.044,0
0.036972001,1.697019,-0.0058260001,0,1.697019,0.046875,0.0028299999,0.019219,0.147249,0.015289,1.69768,-0.005936,0,1,0.046,1.1,0.046,0
0.036934,1.708729,-0.0060459999,0,1.708729,0.048436999,0.002905,0.019858999,0.146256,0.015544,1.709386,-0.0061550001,0,1,0.048,1.1,0.048,0
0.036855999,1.730828,-0.00648,0,1.730828,0.051562,0.0030489999,0.021141,0.144247,0.016049,1.731473,-0.0065870001,0,1,0.050000001,1.1,0.050000001,0
0.036816001,1.741267,-0.0066940002,0,1.741267,0.053125001,0.00312,0.021780999,0.14322899,0.016301,1.741907,-0.0068009999,0,1,0.052000001,1.1,0.052000001,0
0.036773998,1.75133,-0.006906,0,1.75133,0.054687999,0.0031880001,0.022422001,0.14220101,0.016553,1.751964,-0.0070119998,0,1,0.054000001,1.1,0.054000001,0
0.036731001,1.7610379,-0.0071160002,0,1.7610379,0.056249999,0.0032560001,0.023062,0.14116099,0.016805001,1.761665,-0.0072209998,0,1,0.056000002,1.1,0.056000002,0
0.036642998,1.779459,-0.0075289998,0,1.779459,0.059374999,0.0033849999,0.024343999,0.13904101,0.017310999,1.780072,-0.0076310001,0,1,0.058000002,1.1,0.058000002,0
0.036596999,1.788206,-0.0077320002,0,1.788206,0.060936999,0.0034469999,0.024984,0.13795801,0.017565001,1.788811,-0.0078330003,0,1,0.060000002,1.1,0.060000002,0
0.036550999,1.796663,-0.0079319999,0,1.796663,0.0625,0.0035069999,0.025625,0.136859,0.017821001,1.79726,-0.0080319997,0,1,0.062000003,1.1,0.062000003,0
0.036504,1.8048429,-0.00813,0,1.8048429,0.064061999,0.0035649999,0.026265999,0.135741,0.018077999,1.805432,-0.0082280003,0,1,0.064000003,1.1,0.064000003,0
0.036407001,1.8204221,-0.0085159997,0,1.8204221,0.067186996,0.0036760001,0.027547,0.133448,0.018598,1.820994,-0.0086110001,0,1,0.066,1.1,0.066,0
0.036357,1.827843,-0.0087050004,0,1.827843,0.068750001,0.003728,0.028186999,0.13226999,0.018862,1.828405,-0.0087989997,0,1,0.068000004,1.1,0.068000004,0
0.036307,1.835031,-0.0088910004,0,1.835031,0.070312001,0.0037779999,0.028828001,0.13106801,0.019128,1.835584,-0.0089830002,0,1,0.07,1.1,0.07,0
0.036203999,1.848743,-0.0092529999,0,1.848743,0.073438004,0.0038719999,0.030108999,0.128591,0.019669,1.8492759,-0.0093419999,0,1,0.072000004,1.1,0.072000004,0
0.036152001,1.855283,-0.0094290003,0,1.855283,0.075000003,0.0039149998,0.030750001,0.127312,0.019943999,1.8558069,-0.0095170001,0,1,0.074000001,1.1,0.074000001,0
0.036099002,1.861623,-0.009602,0,1.861623,0.076563001,0.0039550001,0.031390999,0.126004,0.020222001,1.862137,-0.0096880002,0,1,0.075999998,1.1,0.075999998,0
0.036045998,1.867769,-0.0097719999,0,1.867769,0.078125,0.0039929999,0.032031,0.124666,0.020504,1.8682719,-0.0098559996,0,1,0.078000002,1.1,0.078000002,0
0.035937,1.879503,-0.0101,0,1.879503,0.081249997,0.004061,0.033312999,0.121892,0.02108,1.879985,-0.01018,0,1,0.079999998,1.1,0.079999998,0
0.035882998,1.885102,-0.010259,0,1.885102,0.082811996,0.0040899999,0.033953,0.120452,0.021374,1.885573,-0.010338,0,1,0.082000002,1.1,0.082000002,0
0.035827,1.89053,-0.010414,0,1.89053,0.084375001,0.0041160001,0.034593999,0.118975,0.021671999,1.89099,-0.010491,0,1,0.083999999,1.1,0.083999999,0
0.035716001,1.900888,-0.010713,0,1.900888,0.087499999,0.004158,0.035875,0.115901,0.022283001,1.901325,-0.010786,0,1,0.086000003,1.1,0.086000003,0
0.035659,1.905827,-0.010857,0,1.905827,0.089063004,0.0041740001,0.036516,0.114299,0.022595,1.906252,-0.010928,0,1,0.088,1.1,0.088,0
0.035603002,1.91061,-0.010997,0,1.91061,0.090625003,0.0041860002,0.037156001,0.112651,0.022913,1.911024,-0.011066,0,1,0.090000004,1.1,0.090000004,0
0.035546001,1.915242,-0.011133,0,1.915242,0.092188001,0.0041939998,0.037797,0.110953,0.023236001,1.915643,-0.0112,0,1,0.092,1.1,0.092,0
0.035432,1.9240609,-0.011392,0,1.9240609,0.095311999,0.0041970001,0.039078001,0.107397,0.023898,1.924438,-0.011455,0,1,0.094000004,1.1,0.094000004,0
0.035374999,1.9282531,-0.011516,0,1.9282531,0.096874997,0.0041919998,0.039719,0.105541,0.024235999,1.928618,-0.011577,0,1,0.096000001,1.1,0.096000001,0
0.035317,1.9323061,-0.011635,0,1.9323061,0.098436996,0.0041800002,0.040359002,0.10357,0.024591001,1.932657,-0.011694,0,1,0.098000005,1.1,0.098000005,0
0.035206001,1.94001,-0.011861,0,1.94001,0.1,0.0040899999,0.041000001,0.099753998,0.025255,1.940335,-0.011915,0,1,0.1,1.1,0.1,0
0.035156999,1.94376,-0.011967,0,1.94376,0.098438002,0.0039280001,0.040359002,0.097324997,0.025684999,1.9440711,-0.012019,0,1,0.102,1.1,0.102,0
0.035107002,1.947489,-0.012069,0,1.947489,0.096874997,0.0037779999,0.039719,0.095114999,0.02606,1.947786,-0.012118,0,1,0.104,1.1,0.104,0
0.035055999,1.951187,-0.012165,0,1.951187,0.095312998,0.0036249999,0.039078001,0.092750996,0.026453,1.9514689,-0.012212,0,1,0.106,1.1,0.106,0
0.034952,1.958473,-0.012342,0,1.958473,0.092188001,0.0033140001,0.037797,0.087691002,0.027263001,1.958721,-0.012383,0,1,0.108,1.1,0.108,0
0.034899,1.9620481,-0.012422,0,1.9620481,0.090625003,0.0031570001,0.037156001,0.084959,0.027681001,1.962278,-0.01246,0,1,0.11,1.1,0.11,0
0.034846,1.965566,-0.012495,0,1.965566,0.089063004,0.002997,0.036516,0.082071997,0.028109999,1.965777,-0.01253,0,1,0.112,1.1,0.112,0
0.034791999,1.96902,-0.012562,0,1.96902,0.087499999,0.0028339999,0.035875,0.079008996,0.028549001,1.96921,-0.012594,0,1,0.114,1.1,0.114,0
0.034681,1.975688,-0.012674,0,1.975688,0.084375001,0.0024989999,0.034593999,0.072241001,0.029463001,1.975834,-0.012698,0,1,0.116,1.1,0.116,0
0.034625001,1.978875,-0.012719,0,1.978875,0.082813002,0.002325,0.033953,0.068462998,0.029937999,1.978996,-0.012739,0,1,0.118,1.1,0.118,0
0.034568001,1.9819421,-0.012754,0,1.9819421,0.081249997,0.002144,0.033312999,0.064351998,0.030427,1.982035,-0.01277,0,1,0.12,1.1,0.12,0
0.034451999,1.987618,-0.012797,0,1.987618,0.078125,0.001755,0.032031,0.054783002,0.031451002,1.98765,-0.012802,0,1,0.122,1.1,0.122,0
0.034391999,1.990164,-0.012802,0,1.990164,0.076563001,0.00154,0.031390999,0.04905,0.031987,1.99016,-0.012801,0,1,0.12400001,1.1,0.12400001,0
0.034329999,1.992455,-0.012793,0,1.992455,0.075000003,0.001298,0.030750001,0.042206999,0.032549001,1.992409,-0.012786,0,1,0.126,1.1,0.126,0
0.034267001,1.9944071,-0.012769,0,1.9944071,0.073438004,0.0010319999,0.030108999,0.034286998,0.033091001,1.994305,-0.012752,0,1,0.12800001,1.1,0.12800001,0
0.034124002,1.9964271,-0.012632,0,1.9964271,0.070312001,0.00033000001,0.028828001,0.011442,0.033992998,1.995999,-0.01256,0,1,0.13,1.1,0.13,0
0.034115002,1.994813,-0.012475,0,1.994813,0.068750001,0.00097599998,0.028188,0.034625001,0.032915998,1.9943,-0.01239,0,1,0.132,1.1,0.132,0
0.034077998,1.992597,-0.012293,0,1.992597,0.067188002,0.001238,0.027547,0.044939999,0.032058001,1.992016,-0.012196,0,1,0.134,1.1,0.134,0
0.034001,1.986269,-0.01187,0,1.986269,0.064061999,0.001648,0.026265999,0.062728003,0.030067001,1.985587,-0.011757,0,1,0.13600001,1.1,0.13600001,0
0.03396,1.982263,-0.011636,0,1.982263,0.0625,0.001798,0.025625,0.070150003,0.029038999,1.98154,-0.011516,0,1,0.138,1.1,0.138,0
0.033918999,1.977718,-0.011389,0,1.977718,0.060938001,0.001923,0.024984,0.076975003,0.027992999,1.9769599,-0.011263,0,1,0.14,1.1,0.14,0
0.033876002,1.97264,-0.011131,0,1.97264,0.059374999,0.0020290001,0.024343999,0.083337002,0.026931001,1.971849,-0.010999,0,1,0.142,1.1,0.142,0
0.033792,1.960868,-0.010585,0,1.960868,0.056249999,0.0021909999,0.023062,0.094993003,0.024768,1.960022,-0.010444,0,1,0.14400001,1.1,0.14400001,0
0.033750001,1.9541579,-0.010299,0,1.9541579,0.054687999,0.0022509999,0.022422001,0.100394,0.023670999,1.953288,-0.010154,0,1,0.146,1.1,0.146,0
0.033707999,1.9468811,-0.010005,0,1.9468811,0.053125001,0.002299,0.021780999,0.105559,0.022566,1.945989,-0.0098559996,0,1,0.148,1.1,0.148,0
0.033627,1.9305511,-0.0093970001,0,1.9305511,0.050000001,0.0023630001,0.020500001,0.115284,0.020337,1.92962,-0.0092420001,0,1,0.15000001,1.1,0.15000001,0
0.033588,1.921451,-0.0090840003,0,1.921451,0.048436999,0.002381,0.019858999,0.119881,0.019215999,1.920504,-0.0089260004,0,1,0.152,1.1,0.152,0
0.033549,1.911693,-0.0087649999,0,1.911693,0.046875,0.002389,0.019219,0.124322,0.018092999,1.91073,-0.0086049996,0,1,0.154,1.1,0.154,0
0.033511002,1.901243,-0.0084419996,0,1.901243,0.045313001,0.002389,0.018578,0.128618,0.016969001,1.900267,-0.0082799997,0,1,0.156,1.1,0.156,0
0.033438999,1.878117,-0.0077840001,0,1.878117,0.042187002,0.0023660001,0.017297,0.136811,0.014722,1.87712,-0.0076179998,0,1,0.15800001,1.1,0.15800001,0
0.033404,1.8653539,-0.0074510002,0,1.8653539,0.040624999,0.0023439999,0.016656,0.140724,0.013601,1.8643481,-0.0072829998,0,1,0.16,1.1,0.16,0
0.033371001,1.851721,-0.0071140002,0,1.851721,0.039062001,0.0023149999,0.016016001,0.144522,0.012484,1.850709,-0.006945,0,1,0.162,1.1,0.162,0
0.033339001,1.8371609,-0.0067759999,0,1.8371609,0.037500001,0.0022789999,0.015375,0.14821,0.011372,1.836143,-0.006606,0,1,0.164,1.1,0.164,0
0.033277001,1.804974,-0.0060950001,0,1.804974,0.034375001,0.0021879999,0.014094,0.155274,0.0091669997,1.80395,-0.0059239999,0,1,0.16600001,1.1,0.16600001,0
0.033248,1.787182,-0.0057529998,0,1.787182,0.032811999,0.002134,0.013453,0.158656,0.008076,1.786157,-0.0055820001,0,1,0.168,1.1,0.168,0
0.033220001,1.768127,-0.005411,0,1.768127,0.03125,0.002075,0.012812,0.16194101,0.0069949999,1.767102,-0.0052410001,0,1,0.17,1.1,0.17,0
0.033167999,1.725737,-0.0047309999,0,1.725737,0.028124999,0.00194,0.011531,0.16823,0.0048659998,1.72472,-0.004561,0,1,0.17200001,1.1,0.17200001,0
0.033142999,1.702106,-0.0043919999,0,1.702106,0.026562,0.001865,0.010891,0.17123599,0.003821,1.701095,-0.004224,0,1,0.17400001,1.1,0.17400001,0
0.033119,1.676608,-0.0040569999,0,1.676608,0.025,0.001785,0.01025,0.174151,0.0027910001,1.6756051,-0.003889,0,1,0.176,1.1,0.176,0
0.033096999,1.649017,-0.003724,0,1.649017,0.023437999,0.001701,0.0096089998,0.176976,0.001776,1.648023,-0.0035580001,0,1,0.178,1.1,0.178,0
0.033055,1.586405,-0.0030700001,0,1.586405,0.020313,0.001519,0.0083280001,0.18235201,-0.000197,1.585439,-0.002909,0,1,0.18000001,1.1,0.18000001,0
0.033036001,1.55064,-0.002751,0,1.55064,0.018750001,0.001421,0.0076870001,0.184901,-0.001153,1.549691,-0.0025919999,0,1,0.182,1.1,0.182,0
0.033016998,1.511247,-0.0024379999,0,1.511247,0.017186999,0.00132,0.0070469999,0.18735801,-0.0020860001,1.510317,-0.0022829999,0,1,0.184,1.1,0.184,0
0.032983001,1.418705,-0.001834,0,1.418705,0.014063,0.001107,0.0057660001,0.19198,-0.0038729999,1.4178261,-0.001687,0,1,0.186,1.1,0.186,0
0.032968,1.363508,-0.001546,0,1.363508,0.0125,0.00099500001,0.0051250001,0.194142,-0.0047229999,1.3626601,-0.001405,0,1,0.18800001,1.1,0.18800001,0
0.032954,1.300329,-0.001269,0,1.300329,0.010937,0.00088000001,0.0044840002,0.196201,-0.005541,1.299518,-0.001134,0,1,0.19,1.1,0.19,0
0.03294,1.2267849,-0.001006,0,1.2267849,0.0093750004,0.00076199998,0.0038439999,0.198156,-0.006325,1.226018,-0.00087799999,0,1,0.192,1.1,0.192,0
0.032919001,1.031642,-0.00053199998,0,1.031642,0.0062500001,0.00051699998,0.002563,0.20179801,-0.0078039998,1.030992,-0.00042299999,0,1,0.19400001,1.1,0.19400001,0
0.032910001,0.893134,-0.000329,0,0.893134,0.0046879998,0.00039199999,0.001922,0.20389999,-0.0086650001,0.89256901,-0.000235,0,1,0.19600001,1.1,0.19600001,0
0.032905001,0.70009798,-0.00016,0,0.70009798,0.003125,0.00026299999,0.001281,0.20522401,-0.0092120003,0.699651,-8.6e-05,0,1,0.198,1.1,0.198,0
0.032903999,0.39258799,-4.3e-05,0,0.39258799,0.001562,0.00014400001,0.00064099999,0.22400101,-0.017271999,0.39232999,0,0,1,0.2,1.1,0.2,0
